# Temperature: 0.000000
# Parameters: -592308.256355 0.407902 4.468272 189.623066
 178.778130472300006   -592308.115622025332414
 179.051213109200006   -592308.122980253654532
 179.324573692700000   -592308.130130497738719
 179.598212364299997   -592308.137066828436218
 179.872129265399991   -592308.143814043607563
 180.146324537200002   -592308.150341307511553
 180.420798321200010   -592308.156675656908192
 180.695550758800010   -592308.162798898410983
 180.970581991399996   -592308.168704594718292
 181.245892160199986   -592308.174423583783209
 181.521481406699991   -592308.179926925455220
 181.797349872399991   -592308.185237379511818
 182.073497698399990   -592308.190333903417923
 182.349925026300014   -592308.195236547035165
 182.626631997400011   -592308.199945213273168
 182.903618753100005   -592308.204450305900536
 183.180885434700002   -592308.208756486419588
 183.458432183599996   -592308.212873108335771
 183.736259141299996   -592308.216795769403689
 184.014366448999994   -592308.220530641381629
 184.292754248199998   -592308.224081483087502
 184.571422680300003   -592308.227430450846441
 184.850371886599987   -592308.230598232126795
 185.129602008400013   -592308.233582114684395
 185.409113187200006   -592308.236381902825087
 185.688905564399988   -592308.238984473282471
 185.968979281299994   -592308.241417586221360
 186.249334479299989   -592308.243654079618864
 186.529971299700009   -592308.245713365031406
 186.810889884000005   -592308.247590860119089
 187.092090373600001   -592308.249280857504345
 187.373572909699988   -592308.250793616170995
 187.655337633899990   -592308.252114467206411
 187.937384687399998   -592308.253253343165852
 188.219714211600007   -592308.254214315558784
 188.502326347900009   -592308.254997383453883
 188.785221237799988   -592308.255610019317828
 189.068399022400001   -592308.256034853286110
 189.351859843400007   -592308.256297763669863
 189.635603841900007   -592308.256367243593559
 189.919631159500000   -592308.256269130972214
 190.203941937400003   -592308.256002792855725
 190.488536317099999   -592308.255565267871134
 190.773414439899994   -592308.254959270707332
 191.058576447200011   -592308.254185677389614
 191.344022480400014   -592308.253231504466385
 191.629752680899998   -592308.252132331486791
 191.915767189900009   -592308.250850740238093
 192.202066148999990   -592308.249413325102068
 192.488649699500002   -592308.247800846002065
 192.775517982699995   -592308.246039515710436
 193.062671140100008   -592308.244104389101267
 193.350109312999990   -592308.242005460779183
 193.637832642799992   -592308.239718165597878
 193.925841270900008   -592308.237326153670438
 194.214135338599988   -592308.234751416137442
 194.502714987300010   -592308.232014802168123
 194.791580358499999   -592308.229108346858993
 195.080731593400003   -592308.226025946089067
 195.370168833500003   -592308.222797627211548
 195.659892220100005   -592308.219406888820231
 195.949901894600004   -592308.215865523903631
 196.240197998399992   -592308.212165790377185
 196.530780672800006   -592308.208285825210623
 196.821650059299998   -592308.204267351422459
 197.112806299200003   -592308.200099789770320
 197.404249533900014   -592308.195776263251901
 197.695979904799998   -592308.191285723587498
 197.987997553199989   -592308.186669773422182
 198.280302620500009   -592308.181872897897847
 198.572895248200012   -592308.176957710064016


# Temperature: 10.000000
# Parameters: -592308.256424 0.407950 4.403322 189.627728
 178.778130472300006   -592308.115662636584602
 179.051213109200006   -592308.123021315783262
 179.324573692700000   -592308.130172514473088
 179.598212364299997   -592308.137109883595258
 179.872129265399991   -592308.143856578622945
 180.146324537200002   -592308.150384178152308
 180.420798321200010   -592308.156719196122140
 180.695550758800010   -592308.162844009930268
 180.970581991399996   -592308.168750900193118
 181.245892160199986   -592308.174470463418402
 181.521481406699991   -592308.179975242586806
 181.797349872399991   -592308.185287040891126
 182.073497698399990   -592308.190383939072490
 182.349925026300014   -592308.195286925649270
 182.626631997400011   -592308.199995972216129
 182.903618753100005   -592308.204501117812470
 183.180885434700002   -592308.208807760500349
 183.458432183599996   -592308.212924823863432
 183.736259141299996   -592308.216847722418606
 184.014366448999994   -592308.220582844107412
 184.292754248199998   -592308.224134732619859
 184.571422680300003   -592308.227483763592318
 184.850371886599987   -592308.230651900405064
 185.129602008400013   -592308.233635446056724
 185.409113187200006   -592308.236436409526505
 185.688905564399988   -592308.239038538420573
 185.968979281299994   -592308.241472454625182
 186.249334479299989   -592308.243709506699815
 186.529971299700009   -592308.245769144501537
 186.810889884000005   -592308.247647223994136
 187.092090373600001   -592308.249337579007261
 187.373572909699988   -592308.250850999960676
 187.655337633899990   -592308.252172244829126
 187.937384687399998   -592308.253311462933198
 188.219714211600007   -592308.254272775142454
 188.502326347900009   -592308.255055998568423
 188.785221237799988   -592308.255669075879268
 189.068399022400001   -592308.256094966083765
 189.351859843400007   -592308.256358235026710
 189.635603841900007   -592308.256428620661609
 189.919631159500000   -592308.256331027369015
 190.203941937400003   -592308.256065207417123
 190.488536317099999   -592308.255627892911434
 190.773414439899994   -592308.255022134049796
 191.058576447200011   -592308.254249801160768
 191.344022480400014   -592308.253296082140878
 191.629752680899998   -592308.252197670866735
 191.915767189900009   -592308.250916837248951
 192.202066148999990   -592308.249480396392755
 192.488649699500002   -592308.247868499718606
 192.775517982699995   -592308.246107750921510
 193.062671140100008   -592308.244174370658584
 193.350109312999990   -592308.242076706839725
 193.637832642799992   -592308.239789698622189
 193.925841270900008   -592308.237398790544830
 194.214135338599988   -592308.234824233339168
 194.502714987300010   -592308.232087401789613
 194.791580358499999   -592308.229181693634018
 195.080731593400003   -592308.226100484840572
 195.370168833500003   -592308.222872883197851
 195.659892220100005   -592308.219483107677661
 195.949901894600004   -592308.215942953247577
 196.240197998399992   -592308.212243133690208
 196.530780672800006   -592308.208363606943749
 196.821650059299998   -592308.204346313606948
 197.112806299200003   -592308.200180348008871
 197.404249533900014   -592308.195858020801097
 197.695979904799998   -592308.191369051230140
 197.987997553199989   -592308.186753997579217
 198.280302620500009   -592308.181958005065098
 198.572895248200012   -592308.177044320153072


# Temperature: 20.000000
# Parameters: -592308.256969 0.407606 4.475472 189.631674
 178.778130472300006   -592308.116073328885250
 179.051213109200006   -592308.123435704968870
 179.324573692700000   -592308.130590560147539
 179.598212364299997   -592308.137532611843199
 179.872129265399991   -592308.144280196051113
 180.146324537200002   -592308.150811246014200
 180.420798321200010   -592308.157150724669918
 180.695550758800010   -592308.163281633751467
 180.970581991399996   -592308.169193114270456
 181.245892160199986   -592308.174916516407393
 181.521481406699991   -592308.180426397942938
 181.797349872399991   -592308.185742145054974
 182.073497698399990   -592308.190842112060636
 182.349925026300014   -592308.195747314486653
 182.626631997400011   -592308.200458859908395
 182.903618753100005   -592308.204966783057898
 183.180885434700002   -592308.209275733912364
 183.458432183599996   -592308.213395410217345
 183.736259141299996   -592308.217320690397173
 184.014366448999994   -592308.221058428054675
 184.292754248199998   -592308.224614530568942
 184.571422680300003   -592308.227965846890584
 184.850371886599987   -592308.231136481510475
 185.129602008400013   -592308.234122193302028
 185.409113187200006   -592308.236927647609264
 185.688905564399988   -592308.239531293860637
 185.968979281299994   -592308.241969551658258
 186.249334479299989   -592308.244210315053351
 186.529971299700009   -592308.246272860094905
 186.810889884000005   -592308.248155341367237
 187.092090373600001   -592308.249849358107895
 187.373572909699988   -592308.251367112272419
 187.655337633899990   -592308.252692301757634
 187.937384687399998   -592308.253834829200059
 188.219714211600007   -592308.254799581365660
 188.502326347900009   -592308.255585892242379
 188.785221237799988   -592308.256203291472048
 189.068399022400001   -592308.256635046796873
 189.351859843400007   -592308.256902756867930
 189.635603841900007   -592308.256976960692555
 189.919631159500000   -592308.256883848924190
 190.203941937400003   -592308.256623017252423
 190.488536317099999   -592308.256189050385728
 190.773414439899994   -592308.255587588646449
 191.058576447200011   -592308.254822190385312
 191.344022480400014   -592308.253872230532579
 191.629752680899998   -592308.252779975649901
 191.915767189900009   -592308.251504074316472
 192.202066148999990   -592308.250073752482422
 192.488649699500002   -592308.248466888791882
 192.775517982699995   -592308.246712837368250
 193.062671140100008   -592308.244787115254439
 193.350109312999990   -592308.242695820168592
 193.637832642799992   -592308.240414164145477
 193.925841270900008   -592308.238028891151771
 194.214135338599988   -592308.235460702795535
 194.502714987300010   -592308.232728887465782
 194.791580358499999   -592308.229830470634624
 195.080731593400003   -592308.226755696930923
 195.370168833500003   -592308.223534777178429
 195.659892220100005   -592308.220152633846737
 195.949901894600004   -592308.216619690996595
 196.240197998399992   -592308.212927121203393
 196.530780672800006   -592308.209052168182097
 196.821650059299998   -592308.205043721827678
 197.112806299200003   -592308.200889055384323
 197.404249533900014   -592308.196575101348571
 197.695979904799998   -592308.192094880272634
 197.987997553199989   -592308.187489372212440
 198.280302620500009   -592308.182699800236151
 198.572895248200012   -592308.177798634278588


# Temperature: 30.000000
# Parameters: -592308.258551 0.407323 4.433110 189.650011
 178.778130472300006   -592308.117341283475980
 179.051213109200006   -592308.124711821554229
 179.324573692700000   -592308.131874096463434
 179.598212364299997   -592308.138824909110554
 179.872129265399991   -592308.145577078452334
 180.146324537200002   -592308.152115894248709
 180.420798321200010   -592308.158464754698798
 180.695550758800010   -592308.164606873760931
 180.970581991399996   -592308.170527104870416
 181.245892160199986   -592308.176258978783153
 181.521481406699991   -592308.181778489612043
 181.797349872399991   -592308.187101223273203
 182.073497698399990   -592308.192208711639978
 182.349925026300014   -592308.197119406191632
 182.626631997400011   -592308.201837067492306
 182.903618753100005   -592308.206352159730159
 183.180885434700002   -592308.210666373488493
 183.458432183599996   -592308.214792215381749
 183.736259141299996   -592308.218723425990902
 184.014366448999994   -592308.222467681742273
 184.292754248199998   -592308.226032436476089
 184.571422680300003   -592308.229389854241163
 184.850371886599987   -592308.232566641061567
 185.129602008400013   -592308.235558696789667
 185.409113187200006   -592308.238373290281743
 185.688905564399988   -592308.240982285467908
 185.968979281299994   -592308.243429736467078
 186.249334479299989   -592308.245678931241855
 186.529971299700009   -592308.247748248279095
 186.810889884000005   -592308.249640556867234
 187.092090373600001   -592308.251342840143479
 187.373572909699988   -592308.252870136755519
 187.655337633899990   -592308.254204370081425
 187.937384687399998   -592308.255354579421692
 188.219714211600007   -592308.256327271694317
 188.502326347900009   -592308.257121128845029
 188.785221237799988   -592308.257748099393211
 189.068399022400001   -592308.258191506261937
 189.351859843400007   -592308.258468941086903
 189.635603841900007   -592308.258550860104151
 189.919631159500000   -592308.258467400562949
 190.203941937400003   -592308.258217372698709
 190.488536317099999   -592308.257791050476953
 190.773414439899994   -592308.257199107203633
 191.058576447200011   -592308.256446987623349
 191.344022480400014   -592308.255505269393325
 191.629752680899998   -592308.254425381193869
 191.915767189900009   -592308.253159401589073
 192.202066148999990   -592308.251741108600982
 192.488649699500002   -592308.250144577003084
 192.775517982699995   -592308.248403703677468
 193.062671140100008   -592308.246491893543862
 193.350109312999990   -592308.244412485277280
 193.637832642799992   -592308.242141830967739
 193.925841270900008   -592308.239767590654083
 194.214135338599988   -592308.237212617765181
 194.502714987300010   -592308.234491734649055
 194.791580358499999   -592308.231607138528489
 195.080731593400003   -592308.228544243378565
 195.370168833500003   -592308.225335983559489
 195.659892220100005   -592308.221967980265617
 195.949901894600004   -592308.218447959399782
 196.240197998399992   -592308.214769667480141
 196.530780672800006   -592308.210903597646393
 196.821650059299998   -592308.206910557812080
 197.112806299200003   -592308.202774987439625
 197.404249533900014   -592308.198475475073792
 197.695979904799998   -592308.194009962957352
 197.987997553199989   -592308.189420760958456
 198.280302620500009   -592308.184642422827892
 198.572895248200012   -592308.179761913954280


# Temperature: 40.000000
# Parameters: -592308.261457 0.406789 4.437572 189.672582
 178.778130472300006   -592308.119797023129649
 179.051213109200006   -592308.127179541159421
 179.324573692700000   -592308.134352742228657
 179.598212364299997   -592308.141315786633641
 179.872129265399991   -592308.148076217388734
 180.146324537200002   -592308.154626550036483
 180.420798321200010   -592308.160988914081827
 180.695550758800010   -592308.167146418825723
 180.970581991399996   -592308.173079117084853
 181.245892160199986   -592308.178823351394385
 181.521481406699991   -592308.184356337995268
 181.797349872399991   -592308.189688942511566
 182.073497698399990   -592308.194807712337933
 182.349925026300014   -592308.199726937687956
 182.626631997400011   -592308.204453859478235
 182.903618753100005   -592308.208979632123373
 183.180885434700002   -592308.213301955838688
 183.458432183599996   -592308.217437022016384
 183.736259141299996   -592308.221377233043313
 184.014366448999994   -592308.225131330662407
 184.292754248199998   -592308.228708357666619
 184.571422680300003   -592308.232075033825822
 184.850371886599987   -592308.235261056222953
 185.129602008400013   -592308.238262859522365
 185.409113187200006   -592308.241090245661326
 185.688905564399988   -592308.243707796558738
 185.968979281299994   -592308.246168204932474
 186.249334479299989   -592308.248429544502869
 186.529971299700009   -592308.250508793629706
 186.810889884000005   -592308.252414965536445
 187.092090373600001   -592308.254129166598432
 187.373572909699988   -592308.255669826874509
 187.655337633899990   -592308.257016889168881
 187.937384687399998   -592308.258178206975572
 188.219714211600007   -592308.259162387927063
 188.502326347900009   -592308.259967295452952
 188.785221237799988   -592308.260607696138322
 189.068399022400001   -592308.261066840961576
 189.351859843400007   -592308.261357829207554
 189.635603841900007   -592308.261450623511337
 189.919631159500000   -592308.261380566982552
 190.203941937400003   -592308.261145338183269
 190.488536317099999   -592308.260730029083788
 190.773414439899994   -592308.260151280555874
 191.058576447200011   -592308.259416782297194
 191.344022480400014   -592308.258486866950989
 191.629752680899998   -592308.257423484930769
 191.915767189900009   -592308.256171096931212
 192.202066148999990   -592308.254768780432642
 192.488649699500002   -592308.253186336951330
 192.775517982699995   -592308.251462692162022
 193.062671140100008   -592308.249569108593278
 193.350109312999990   -592308.247505372157320
 193.637832642799992   -592308.245249625761062
 193.925841270900008   -592308.242889964953065
 194.214135338599988   -592308.240352176013403
 194.502714987300010   -592308.237646012217738
 194.791580358499999   -592308.234779309015721
 195.080731593400003   -592308.231731983018108
 195.370168833500003   -592308.228540167096071
 195.659892220100005   -592308.225190328201279
 195.949901894600004   -592308.221686828066595
 196.240197998399992   -592308.218026824877597
 196.530780672800006   -592308.214172699837945
 196.821650059299998   -592308.210198873304762
 197.112806299200003   -592308.206086619407870
 197.404249533900014   -592308.201805140823126
 197.695979904799998   -592308.197357947472483
 197.987997553199989   -592308.192788682179525
 198.280302620500009   -592308.188024913193658
 198.572895248200012   -592308.183169336523861


# Temperature: 50.000000
# Parameters: -592308.265800 0.406190 4.466098 189.698008
 178.778130472300006   -592308.123593000927940
 179.051213109200006   -592308.130990421748720
 179.324573692700000   -592308.138177360640839
 179.598212364299997   -592308.145155337871984
 179.872129265399991   -592308.151927010738291
 180.146324537200002   -592308.158491736161523
 180.420798321200010   -592308.164870715234429
 180.695550758800010   -592308.171046726405621
 180.970581991399996   -592308.176994811510667
 181.245892160199986   -592308.182754325796850
 181.521481406699991   -592308.188303725211881
 181.797349872399991   -592308.193648530635983
 182.073497698399990   -592308.198781421757303
 182.349925026300014   -592308.203711568959989
 182.626631997400011   -592308.208450123551302
 182.903618753100005   -592308.212989115738310
 183.180885434700002   -592308.217321848380379
 183.458432183599996   -592308.221468450967222
 183.736259141299996   -592308.225419983849861
 184.014366448999994   -592308.229186423239298
 184.292754248199998   -592308.232778384117410
 184.571422680300003   -592308.236156640341505
 184.850371886599987   -592308.239354192977771
 185.129602008400013   -592308.242368221981451
 185.409113187200006   -592308.245211012545042
 185.688905564399988   -592308.247839480172843
 185.968979281299994   -592308.250315528130159
 186.249334479299989   -592308.252591682481579
 186.529971299700009   -592308.254683162434958
 186.810889884000005   -592308.256605989648961
 187.092090373600001   -592308.258334743208252
 187.373572909699988   -592308.259891386260279
 187.655337633899990   -592308.261253929580562
 187.937384687399998   -592308.262428816291504
 188.219714211600007   -592308.263427063706331
 188.502326347900009   -592308.264245560741983
 188.785221237799988   -592308.264902115100995
 189.068399022400001   -592308.265379806980491
 189.351859843400007   -592308.265687022474594
 189.635603841900007   -592308.265793025959283
 189.919631159500000   -592308.265738990623504
 190.203941937400003   -592308.265521268011071
 190.488536317099999   -592308.265119424206205
 190.773414439899994   -592308.264556406531483
 191.058576447200011   -592308.263842482469045
 191.344022480400014   -592308.262927006464452
 191.629752680899998   -592308.261882871971466
 191.915767189900009   -592308.260646688519046
 192.202066148999990   -592308.259262977866456
 192.488649699500002   -592308.257697217864916
 192.775517982699995   -592308.255993385333568
 193.062671140100008   -592308.254120987374336
 193.350109312999990   -592308.252075504511595
 193.637832642799992   -592308.249837519368157
 193.925841270900008   -592308.247494568699040
 194.214135338599988   -592308.244976349640638
 194.502714987300010   -592308.242287373985164
 194.791580358499999   -592308.239441206445917
 195.080731593400003   -592308.236412004451267
