# Temperature: 0.000000
# Parameters: -592308.256360 0.407928 4.414232 189.626612
 179.051213109200006   -592308.122980252606794
 179.598212364299997   -592308.137079528765753
 180.146324537200002   -592308.150341307511553
 180.695550758800010   -592308.162798895384185
 181.245892160199986   -592308.174423582735471
 181.797349872399991   -592308.185237378464080
 182.349925026300014   -592308.195236548082903
 182.903618753100005   -592308.204450303921476
 183.458432183599996   -592308.212873107288033
 184.014366448999994   -592308.220530641381629
 184.571422680300003   -592308.227430452941917
 185.129602008400013   -592308.233582114684395
 185.688905564399988   -592308.238984471186996
 186.249334479299989   -592308.243654080666602
 186.810889884000005   -592308.247590859071352
 187.373572909699988   -592308.250793617218733
 187.937384687399998   -592308.253253342118114
 188.502326347900009   -592308.254997385549359
 189.068399022400001   -592308.256034851190634
 189.635603841900007   -592308.256367245572619
 190.203941937400003   -592308.256002792855725
 190.773414439899994   -592308.254959266516380
 191.344022480400014   -592308.253231506561860
 191.915767189900009   -592308.250850739190355
 192.488649699500002   -592308.247800848097540
 193.062671140100008   -592308.244104387005791
 193.637832642799992   -592308.239756261464208
 194.214135338599988   -592308.234751417185180
 194.791580358499999   -592308.229108351981267
 195.370168833500003   -592308.222797628259286
 195.949901894600004   -592308.215865522855893
 196.530780672800006   -592308.208285826258361
 197.112806299200003   -592308.200099792797118
 197.695979904799998   -592308.191285725682974
 198.280302620500009   -592308.181872893706895


# Temperature: 10.000000
# Parameters: -592308.256431 0.407926 4.406241 189.628426
 179.051213109200006   -592308.123021315783262
 179.598212364299997   -592308.137122121755965
 180.146324537200002   -592308.150384179200046
 180.695550758800010   -592308.162844006903470
 181.245892160199986   -592308.174470461322926
 181.797349872399991   -592308.185287039843388
 182.349925026300014   -592308.195286927744746
 182.903618753100005   -592308.204501113621518
 183.458432183599996   -592308.212924821767956
 184.014366448999994   -592308.220582843059674
 184.571422680300003   -592308.227483765687793
 185.129602008400013   -592308.233635447104461
 185.688905564399988   -592308.239038536325097
 186.249334479299989   -592308.243709507631138
 186.810889884000005   -592308.247647223062813
 187.373572909699988   -592308.250850923242979
 187.937384687399998   -592308.253311461885460
 188.502326347900009   -592308.255056000663899
 189.068399022400001   -592308.256094962940551
 189.635603841900007   -592308.256428626948036
 190.203941937400003   -592308.256065210560337
 190.773414439899994   -592308.255022129975259
 191.344022480400014   -592308.253296084236354
 191.915767189900009   -592308.250916835153475
 192.488649699500002   -592308.247868502861820
 193.062671140100008   -592308.244174367515370
 193.637832642799992   -592308.239827968762256
 194.214135338599988   -592308.234824234386906
 194.791580358499999   -592308.229181702015921
 195.370168833500003   -592308.222872882150114
 195.949901894600004   -592308.215942949056625
 196.530780672800006   -592308.208363606943749
 197.112806299200003   -592308.200180352199823
 197.695979904799998   -592308.191369056352414
 198.280302620500009   -592308.181957996799611


# Temperature: 20.000000
# Parameters: -592308.256978 0.407743 4.415977 189.634822
 179.051213109200006   -592308.123435704968870
 179.598212364299997   -592308.137544145225547
 180.146324537200002   -592308.150811249040999
 180.695550758800010   -592308.163281630608253
 181.245892160199986   -592308.174916513380595
 181.797349872399991   -592308.185742145054974
 182.349925026300014   -592308.195747318677604
 182.903618753100005   -592308.204966776887886
 183.458432183599996   -592308.213395407074131
 184.014366448999994   -592308.221058425959200
 184.571422680300003   -592308.227965850033797
 185.129602008400013   -592308.234122194349766
 185.688905564399988   -592308.239531290717423
 186.249334479299989   -592308.244210317148827
 186.810889884000005   -592308.248155342414975
 187.373572909699988   -592308.251366941258311
 187.937384687399998   -592308.253834829200059
 188.502326347900009   -592308.255585894337855
 189.068399022400001   -592308.256635042605922
 189.635603841900007   -592308.256976970005780
 190.203941937400003   -592308.256623023538850
 190.773414439899994   -592308.255587584455498
 191.344022480400014   -592308.253872234607115
 191.915767189900009   -592308.251504072220996
 192.488649699500002   -592308.248466894030571
 193.062671140100008   -592308.244787111063488
 193.637832642799992   -592308.240453050937504
 194.214135338599988   -592308.235460703843273
 194.791580358499999   -592308.229830480995588
 195.370168833500003   -592308.223534774035215
 195.949901894600004   -592308.216619684710167
 196.530780672800006   -592308.209052168182097
 197.112806299200003   -592308.200889061554335
 197.695979904799998   -592308.192094888538122
 198.280302620500009   -592308.182699786731973


# Temperature: 30.000000
# Parameters: -592308.258542 0.407169 4.443314 189.650214
 179.051213109200006   -592308.124711821554229
 179.598212364299997   -592308.138836408266798
 180.146324537200002   -592308.152115899487399
 180.695550758800010   -592308.164606870617718
 181.245892160199986   -592308.176258974592201
 181.797349872399991   -592308.187101223273203
 182.349925026300014   -592308.197119413409382
 182.903618753100005   -592308.206352150300518
 183.458432183599996   -592308.214792211307213
 184.014366448999994   -592308.222467678715475
 184.571422680300003   -592308.229389857384376
 185.129602008400013   -592308.235558699932881
 185.688905564399988   -592308.240982280345634
 186.249334479299989   -592308.245678935432807
 186.810889884000005   -592308.249640557914972
 187.373572909699988   -592308.252869863063097
 187.937384687399998   -592308.255354580469429
 188.502326347900009   -592308.257121129892766
 189.068399022400001   -592308.258191499975510
 189.635603841900007   -592308.258550873608328
 190.203941937400003   -592308.258217380964197
 190.773414439899994   -592308.257199101964943
 191.344022480400014   -592308.255505273584276
 191.915767189900009   -592308.253159398562275
 192.488649699500002   -592308.250144584220834
 193.062671140100008   -592308.246491887373850
 193.637832642799992   -592308.242181852576323
 194.214135338599988   -592308.237212618812919
 194.791580358499999   -592308.231607153080404
 195.370168833500003   -592308.225335979368538
 195.949901894600004   -592308.218447951134294
 196.530780672800006   -592308.210903598694131
 197.112806299200003   -592308.202774996752851
 197.695979904799998   -592308.194009975413792
 198.280302620500009   -592308.184642403153703


# Temperature: 40.000000
# Parameters: -592308.261452 0.406643 4.472963 189.671717
 179.051213109200006   -592308.127179542207159
 179.598212364299997   -592308.141327847610228
 180.146324537200002   -592308.154626557254232
 180.695550758800010   -592308.167146414634772
 181.245892160199986   -592308.178823345224373
 181.797349872399991   -592308.189688943559304
 182.349925026300014   -592308.199726945953444
 182.903618753100005   -592308.208979619666934
 183.458432183599996   -592308.217437015846372
 184.014366448999994   -592308.225131326471455
 184.571422680300003   -592308.232075038948096
 185.129602008400013   -592308.238262862665579
 185.688905564399988   -592308.243707790388726
 186.249334479299989   -592308.248429549741559
 186.810889884000005   -592308.252414968679659
 187.373572909699988   -592308.255669447593391
 187.937384687399998   -592308.258178208954632
 188.502326347900009   -592308.259967296500690
 189.068399022400001   -592308.261066832696088
 189.635603841900007   -592308.261450641090050
 190.203941937400003   -592308.261145349591970
 190.773414439899994   -592308.260151275433600
 191.344022480400014   -592308.258486872073263
 191.915767189900009   -592308.256171093787998
 192.488649699500002   -592308.253186345216818
 193.062671140100008   -592308.249569101375528
 193.637832642799992   -592308.245290842372924
 194.214135338599988   -592308.240352176944725
 194.791580358499999   -592308.234779327642173
 195.370168833500003   -592308.228540160809644
 195.949901894600004   -592308.221686816657893
 196.530780672800006   -592308.214172700885683
 197.112806299200003   -592308.206086631864309
 197.695979904799998   -592308.197357964119874
 198.280302620500009   -592308.188024888280779


# Temperature: 50.000000
# Parameters: -592308.265807 0.406236 4.418929 189.700917
 179.051213109200006   -592308.130990422796458
 179.598212364299997   -592308.145168363698758
 180.146324537200002   -592308.158491744543426
 180.695550758800010   -592308.171046721166931
 181.245892160199986   -592308.182754317531362
 181.797349872399991   -592308.193648531683721
 182.349925026300014   -592308.203711579320952
 182.903618753100005   -592308.212989100255072
 183.458432183599996   -592308.221468443749472
 184.014366448999994   -592308.229186418117024
 184.571422680300003   -592308.236156645580195
 185.129602008400013   -592308.242368226172403
 185.688905564399988   -592308.247839473886415
 186.249334479299989   -592308.252591688651592
 186.810889884000005   -592308.256605993839912
 187.373572909699988   -592308.259890897083096
 187.937384687399998   -592308.262428818270564
 188.502326347900009   -592308.264245561789721
 189.068399022400001   -592308.265379797550850
 189.635603841900007   -592308.265793047728948
 190.203941937400003   -592308.265521282562986
 190.773414439899994   -592308.264556400361471
 191.344022480400014   -592308.262927012750879
 191.915767189900009   -592308.260646683280356
 192.488649699500002   -592308.257697228225879
 193.062671140100008   -592308.254120979108848
 193.637832642799992   -592308.249879644834436
 194.214135338599988   -592308.244976350688376
 194.791580358499999   -592308.239441229263321
 195.370168833500003   -592308.233239098102786
 195.949901894600004   -592308.226425464614294
 196.530780672800006   -592308.218946250504814
 197.112806299200003   -592308.210907679866068
 197.695979904799998   -592308.202220055623911
 198.280302620500009   -592308.192926074843854


# Temperature: 60.000000
# Parameters: -592308.271619 0.405658 4.445453 189.729403
 179.051213109200006   -592308.136188610806130
 179.598212364299997   -592308.150400775601156
 180.146324537200002   -592308.163753087166697
 180.695550758800010   -592308.176347920671105
 181.245892160199986   -592308.188090680865571
 181.797349872399991   -592308.199017607723363
 182.349925026300014   -592308.209109746851027
 182.903618753100005   -592308.218415803625248
 183.458432183599996   -592308.226920670247637
 184.014366448999994   -592308.234665976138785
 184.571422680300003   -592308.241666442365386
 185.129602008400013   -592308.247905352502130
 185.688905564399988   -592308.253406596486457
 186.249334479299989   -592308.258193211280741
 186.810889884000005   -592308.262240107986145
 187.373572909699988   -592308.265559252584353
 187.937384687399998   -592308.268130102194846
 188.502326347900009   -592308.269978323951364
 189.068399022400001   -592308.271151331486180
 189.635603841900007   -592308.271597742103040
 190.203941937400003   -592308.271363385720178
 190.773414439899994   -592308.270431376760826
 191.344022480400014   -592308.268841139157303
 191.915767189900009   -592308.266600136994384
 192.488649699500002   -592308.263689727173187
 193.062671140100008   -592308.260158402961679
 193.637832642799992   -592308.255957634421065
 194.214135338599988   -592308.251093037310056
 194.791580358499999   -592308.245599230984226
 195.370168833500003   -592308.239437765092589
 195.949901894600004   -592308.232667448930442
 196.530780672800006   -592308.225226485286839
 197.112806299200003   -592308.217238844605163
 197.695979904799998   -592308.208595612552017
 198.280302620500009   -592308.199344043387100


# Temperature: 70.000000
# Parameters: -592308.278864 0.404886 4.509028 189.759065
 179.051213109200006   -592308.142762210220098
 179.598212364299997   -592308.157012259354815
 180.146324537200002   -592308.170396913657896
 180.695550758800010   -592308.183035356923938
 181.245892160199986   -592308.194816872244701
 181.797349872399991   -592308.205779802403413
 182.349925026300014   -592308.215904288459569
 182.903618753100005   -592308.225241784239188
 183.458432183599996   -592308.233775049913675
 184.014366448999994   -592308.241550598759204
 184.571422680300003   -592308.248584228567779
 185.129602008400013   -592308.254853269667365
 185.688905564399988   -592308.260387374670245
 186.249334479299989   -592308.265211458317935
 186.810889884000005   -592308.269293799647130
 187.373572909699988   -592308.272650126134977
 187.937384687399998   -592308.275256851571612
 188.502326347900009   -592308.277139564626850
 189.068399022400001   -592308.278354544308968
 189.635603841900007   -592308.278837037039921
 190.203941937400003   -592308.278643119847402
 190.773414439899994   -592308.277746868785471
 191.344022480400014   -592308.276199016836472
 191.915767189900009   -592308.274000340257771
 192.488649699500002   -592308.271131857996807
 193.062671140100008   -592308.267648453009315
 193.637832642799992   -592308.263491013320163
 194.214135338599988   -592308.258667606860399
 194.791580358499999   -592308.253217842429876
 195.370168833500003   -592308.247099857660942
 195.949901894600004   -592308.240375655354001
 196.530780672800006   -592308.232975539169274
 197.112806299200003   -592308.225041435100138
 197.695979904799998   -592308.216445183265023
 198.280302620500009   -592308.207238610601053


# Temperature: 80.000000
# Parameters: -592308.287506 0.404382 4.469935 189.795506
 179.051213109200006   -592308.150672268820927
 179.598212364299997   -592308.164963235147297
 180.146324537200002   -592308.178383063641377
 180.695550758800010   -592308.191068219719455
 181.245892160199986   -592308.202891475986689
 181.797349872399991   -592308.213893161271699
 182.349925026300014   -592308.224052724079229
 182.903618753100005   -592308.233424059231766
 183.458432183599996   -592308.241988131660037
 184.014366448999994   -592308.249796339310706
 184.571422680300003   -592308.256865542382002
 185.129602008400013   -592308.263167025754228
 185.688905564399988   -592308.268736332887784
 186.249334479299989   -592308.273600399843417
 186.810889884000005   -592308.277720505488105
 187.373572909699988   -592308.281116406782530
 187.937384687399998   -592308.283761436585337
 188.502326347900009   -592308.285681137582287
 189.068399022400001   -592308.286940736346878
 189.635603841900007   -592308.287461725180037
 190.203941937400003   -592308.287310740910470
 190.773414439899994   -592308.286452618893236
 191.344022480400014   -592308.284949812106788
 191.915767189900009   -592308.282795901875943
 192.488649699500002   -592308.279971683281474
 193.062671140100008   -592308.276538609294221
 193.637832642799992   -592308.272426715353504
 194.214135338599988   -592308.267646486405283
 194.791580358499999   -592308.262242954922840
 195.370168833500003   -592308.256170753273182
 195.949901894600004   -592308.249494950985536
 196.530780672800006   -592308.242137809284031
 197.112806299200003   -592308.234259342658333
 197.695979904799998   -592308.225712182116695
 198.280302620500009   -592308.216552718076855


# Temperature: 90.000000
# Parameters: -592308.297474 0.403735 4.515345 189.829503
 179.051213109200006   -592308.159868089016527
 179.598212364299997   -592308.174202564521693
 180.146324537200002   -592308.187659990391694
 180.695550758800010   -592308.200394510407932
 181.245892160199986   -592308.212262072949670
 181.797349872399991   -592308.223304885672405
 182.349925026300014   -592308.233501886250451
 182.903618753100005   -592308.242909115971997
 183.458432183599996   -592308.251506076194346
 184.014366448999994   -592308.259349013562314
 184.571422680300003   -592308.266455846140161
 185.129602008400013   -592308.272791740833782
 185.688905564399988   -592308.278398241265677
 186.249334479299989   -592308.283304422278889
 186.810889884000005   -592308.287464246852323
 187.373572909699988   -592308.290901746251620
 187.937384687399998   -592308.293587149004452
 188.502326347900009   -592308.295545970904641
 189.068399022400001   -592308.296852453495376
 189.635603841900007   -592308.297413993510418
 190.203941937400003   -592308.297308062785305
 190.773414439899994   -592308.296490079374053
 191.344022480400014   -592308.295034562703222
 191.915767189900009   -592308.292927474016324
 192.488649699500002   -592308.290149469743483
 193.062671140100008   -592308.286768734222278
 193.637832642799992   -592308.282704223645851
 194.214135338599988   -592308.277968805632554
 194.791580358499999   -592308.272613325971179
 195.370168833500003   -592308.266588840284385
 195.949901894600004   -592308.259963358636014
 196.530780672800006   -592308.252650976995938
 197.112806299200003   -592308.244829891133122
 197.695979904799998   -592308.236333582899533
 198.280302620500009   -592308.227222994668409


# Temperature: 100.000000
# Parameters: -592308.308710 0.403049 4.549310 189.865683
 179.051213109200006   -592308.170295029180124
 179.598212364299997   -592308.184675275348127
 180.146324537200002   -592308.198172415141016
 180.695550758800010   -592308.210958618554287
 181.245892160199986   -592308.222872733138502
 181.797349872399991   -592308.233958757598884
 182.349925026300014   -592308.244195274077356
 182.903618753100005   -592308.253640197566710
 183.458432183599996   -592308.262271870858967
 184.014366448999994   -592308.270151350530796
 184.571422680300003   -592308.277297599357553
 185.129602008400013   -592308.283669618773274
 185.688905564399988   -592308.289315030793659
 186.249334479299989   -592308.294265171862207
 186.810889884000005   -592308.298466395470314
 187.373572909699988   -592308.301947234082036
 187.937384687399998   -592308.304674802697264
 188.502326347900009   -592308.306674597668462
 189.068399022400001   -592308.308029932319187
 189.635603841900007   -592308.308633799897507
 190.203941937400003   -592308.308574750786647
 190.773414439899994   -592308.307798632886261
 191.344022480400014   -592308.306392331956886
 191.915767189900009   -592308.304333814419806
 192.488649699500002   -592308.301603676402010
 193.062671140100008   -592308.298276975983754
 193.637832642799992   -592308.294261388829909
 194.214135338599988   -592308.289572141482495
 194.791580358499999   -592308.284266242408194
 195.370168833500003   -592308.278291108319536
 195.949901894600004   -592308.271717575378716
 196.530780672800006   -592308.264451461960562
 197.112806299200003   -592308.256689216010273
 197.695979904799998   -592308.248245240072720
 198.280302620500009   -592308.239185004611500


# Temperature: 110.000000
# Parameters: -592308.321162 0.402372 4.569784 189.904061
 179.051213109200006   -592308.181898371432908
 179.598212364299997   -592308.196326387464069
 180.146324537200002   -592308.209865110693499
 180.695550758800010   -592308.222705044550821
 181.245892160199986   -592308.234667700249702
 181.797349872399991   -592308.245798785355873
 182.349925026300014   -592308.256076663499698
 182.903618753100005   -592308.265560868545435
 183.458432183599996   -592308.274228871800005
 184.014366448999994   -592308.282146485638805
 184.571422680300003   -592308.289333719993010
 185.129602008400013   -592308.295743361697532
 185.688905564399988   -592308.301429186016321
 186.249334479299989   -592308.306424894602969
 186.810889884000005   -592308.310668973368593
 187.373572909699988   -592308.314194661215879
 187.937384687399998   -592308.316965958802029
 188.502326347900009   -592308.319008344784379
