# Temperature: 0.000000
# Parameters: -1425526.684452 0.493514 4.261574 487.176609
 447.797439305299974  -1425525.774141260888427
 448.487419830100009  -1425525.808086123317480
 449.178108753800018  -1425525.841362452600151
 449.869506439699990  -1425525.873839375562966
 450.561613251499978  -1425525.905731657519937
 451.254429552399984  -1425525.936912648379803
 451.947955706100004  -1425525.967397654661909
 452.642192076000015  -1425525.997188819106668
 453.337139025499994  -1425526.026364928577095
 454.032796918100019  -1425526.054875343805179
 454.729166117200009  -1425526.082567920209840
 455.426246986500018  -1425526.109764805762097
 456.124039889199992  -1425526.136159246554598
 456.822545188899994  -1425526.161951276706532
 457.521763249099990  -1425526.187150544952601
 458.221694433200014  -1425526.211549592670053
 458.922339104599985  -1425526.235446376726031
 459.623697626900025  -1425526.258544993354008
 460.325770363599986  -1425526.281038476387039
 461.028557678000027  -1425526.302930439123884
 461.732059933699986  -1425526.324127753963694
 462.436277494100011  -1425526.344715566607192
 463.141210722700009  -1425526.364706379827112
 463.846859982900014  -1425526.384001634316519
 465.260308052299990  -1425526.420772612560540
 465.968107588299972  -1425526.438170018605888
 466.676624609800001  -1425526.454961627721786
 467.385859480399972  -1425526.471148480894044
 468.095812563399988  -1425526.486741261091083
 468.806484222400002  -1425526.501631767721847
 469.517874820799989  -1425526.516017660032958
 470.229984721999983  -1425526.529707004548982
 470.942814289599994  -1425526.542890074895695
 471.656363886900010  -1425526.555370060494170
 472.370633877600028  -1425526.567353364080191
 473.085624624999980  -1425526.578635051380843
 473.801336492600001  -1425526.589315154124051
 474.517769843800011  -1425526.599493887042627
 475.234925042200018  -1425526.609073992818594
 475.952802451299988  -1425526.617964434204623
 476.671402434400022  -1425526.626348685706034
 477.390725354999972  -1425526.634130568010733
 478.110771576700017  -1425526.641430089250207
 478.831541462900020  -1425526.648017166415229
 479.553035377000015  -1425526.654111908748746
 480.275253682500022  -1425526.659714600536972
 480.998196742900006  -1425526.664611406391487
 481.721864921699989  -1425526.669021855806932
 482.446258582300004  -1425526.672840172657743
 483.171378088100028  -1425526.676151896826923
 483.897223802799999  -1425526.678883916465566
 484.623796089599978  -1425526.681113368598744
 485.351095312200016  -1425526.682744651334360
 486.079121833899990  -1425526.683791400399059
 486.807876018300021  -1425526.684337954735383
 487.537358228699986  -1425526.684386110398918
 488.267568828700007  -1425526.683851280948147
 488.998508181799991  -1425526.682804736774415
 489.730176651299985  -1425526.681269167689607
 490.462574600899984  -1425526.679132107878104
 491.195702393799991  -1425526.676491378108039
 491.929560393700001  -1425526.673260489245877
 492.664148963900004  -1425526.669634064193815
 493.399468468000009  -1425526.665400861063972
 494.135519269399992  -1425526.660671875113621
 494.872301731499988  -1425526.655443396884948
 495.609816217900004  -1425526.649606929859146
 496.348063092000018  -1425526.643381127854809
 497.087042717299994  -1425526.636551611125469
 497.826755457300010  -1425526.629312222590670
 498.567201675299998  -1425526.621486786287278
 499.308381735000012  -1425526.613188009010628
 500.050295999599996  -1425526.604414104484022
 500.792944832899991  -1425526.595085945446044
 501.536328598000011  -1425526.585251996060833
 502.280447658699984  -1425526.575026033213362
 503.025302378300012  -1425526.564197465078905
 503.770893120200014  -1425526.552968379342929
 504.517220248099989  -1425526.541246677516028
 506.012085115099978  -1425526.516286912374198
 506.760623581300024  -1425526.503162358189002
 507.509899887299980  -1425526.489541116403416
 508.259914396400006  -1425526.475406020646915
 509.010667472199998  -1425526.460788525408134
 509.762159478099989  -1425526.445763259194791
 510.514390777699987  -1425526.430147720035166
 511.267361734299982  -1425526.414231178350747
 512.021072711400052  -1425526.397815129021183
 512.775524072500048  -1425526.380909279221669
 513.530716181100047  -1425526.363504233537242
 514.286649400699957  -1425526.345698900986463
 515.043324094699983  -1425526.327500235522166
 515.800740626499987  -1425526.308806048706174
 516.558899359700035  -1425526.289614068111405
 517.317800657699991  -1425526.270031022839248
 518.077444883899943  -1425526.250090851448476
 518.837832401899959  -1425526.229573800927028
 519.598963575199946  -1425526.208705798257142
 520.360838767099949  -1425526.187448470620438
 521.123458341200035  -1425526.165699308272451
 521.886822660800021  -1425526.143553097266704
 522.650932089600019  -1425526.120924254180863
 523.415786990899960  -1425526.097894836682826
 524.181387728300024  -1425526.074480858398601
 524.947734665100029  -1425526.050671353703365
 525.714828164900041  -1425526.026473940117285
 526.482668591100037  -1425526.001778369303793
 527.251256307299968  -1425525.976695114048198
 528.020591676699951  -1425525.951226486125961
 528.790675062999981  -1425525.925371850607917
 529.561506829600035  -1425525.899129191413522


# Temperature: 10.000000
# Parameters: -1425526.684441 0.493475 4.265746 487.175509
 447.797439305299974  -1425525.774178184568882
 448.487419830100009  -1425525.808121048845351
 449.178108753800018  -1425525.841396329225972
 449.869506439699990  -1425525.873871980467811
 450.561613251499978  -1425525.905763114104047
 451.254429552399984  -1425525.936943018808961
 451.947955706100004  -1425525.967427069554105
 452.642192076000015  -1425525.997217345749959
 453.337139025499994  -1425526.026392606319860
 454.032796918100019  -1425526.054902330273762
 454.729166117200009  -1425526.082594221690670
 455.426246986500018  -1425526.109790487447754
 456.124039889199992  -1425526.136184309609234
 456.822545188899994  -1425526.161975792143494
 457.521763249099990  -1425526.187174518592656
 458.221694433200014  -1425526.211573075037450
 458.922339104599985  -1425526.235469443490729
 459.623697626900025  -1425526.258567623794079
 460.325770363599986  -1425526.281060742912814
 461.028557678000027  -1425526.302952307742089
 461.732059933699986  -1425526.324149292893708
 462.436277494100011  -1425526.344736776081845
 463.141210722700009  -1425526.364727295003831
 463.846859982900014  -1425526.384022299665958
 465.260308052299990  -1425526.420792732853442
 465.968107588299972  -1425526.438189950073138
 466.676624609800001  -1425526.454981356160715
 467.385859480399972  -1425526.471168000018224
 468.095812563399988  -1425526.486760609084740
 468.806484222400002  -1425526.501650916645303
 469.517874820799989  -1425526.516036654589698
 470.229984721999983  -1425526.529725886182860
 470.942814289599994  -1425526.542908803094178
 471.656363886900010  -1425526.555388660170138
 472.370633877600028  -1425526.567371863173321
 473.085624624999980  -1425526.578653577482328
 473.801336492600001  -1425526.589333406649530
 474.517769843800011  -1425526.599512049229816
 475.234925042200018  -1425526.609092055819929
 475.952802451299988  -1425526.617982423398644
 476.671402434400022  -1425526.626366592012346
 477.390725354999972  -1425526.634148369776085
 478.110771576700017  -1425526.641447863075882
 478.831541462900020  -1425526.648034862475470
 479.553035377000015  -1425526.654129532165825
 480.275253682500022  -1425526.659732199972495
 480.998196742900006  -1425526.664628949947655
 481.721864921699989  -1425526.669039377477020
 482.446258582300004  -1425526.672857689205557
 483.171378088100028  -1425526.676169363781810
 483.897223802799999  -1425526.678901402978227
 484.623796089599978  -1425526.681130841840059
 485.351095312200016  -1425526.682762112934142
 486.079121833899990  -1425526.683808911824599
 486.807876018300021  -1425526.684355464298278
 487.537358228699986  -1425526.684403627179563
 488.267568828700007  -1425526.683868850348517
 488.998508181799991  -1425526.682822344591841
 489.730176651299985  -1425526.681286823237315
 490.462574600899984  -1425526.679149790434167
 491.195702393799991  -1425526.676509097917005
 491.929560393700001  -1425526.673278288682923
 492.664148963900004  -1425526.669651904143393
 493.399468468000009  -1425526.665418764343485
 494.135519269399992  -1425526.660689813550562
 494.872301731499988  -1425526.655461408896372
 495.609816217900004  -1425526.649625009391457
 496.348063092000018  -1425526.643399282824248
 497.087042717299994  -1425526.636569868773222
 497.826755457300010  -1425526.629330519586802
 498.567201675299998  -1425526.621505215996876
 499.308381735000012  -1425526.613207521848381
 500.050295999599996  -1425526.604432753752917
 500.792944832899991  -1425526.595104679698125
 501.536328598000011  -1425526.585270843468606
 502.280447658699984  -1425526.575045012403280
 503.025302378300012  -1425526.564216566272080
 503.770893120200014  -1425526.552987605100498
 504.517220248099989  -1425526.541266055544838
 506.012085115099978  -1425526.516306583769619
 506.760623581300024  -1425526.503182212123647
 507.509899887299980  -1425526.489561134949327
 508.259914396400006  -1425526.475426174001768
 509.010667472199998  -1425526.460808901581913
 509.762159478099989  -1425526.445783780422062
 510.514390777699987  -1425526.430168479681015
 511.267361734299982  -1425526.414252126589417
 512.021072711400052  -1425526.397836258634925
 512.775524072500048  -1425526.380930659594014
 513.530716181100047  -1425526.363525829510763
 514.286649400699957  -1425526.345720759127289
 515.043324094699983  -1425526.327522347681224
 515.800740626499987  -1425526.308828466571867
 516.558899359700035  -1425526.289636774221435
 517.317800657699991  -1425526.270054087508470
 518.077444883899943  -1425526.250115066301078
 518.837832401899959  -1425526.229597607627511
 519.598963575199946  -1425526.208730034995824
 520.360838767099949  -1425526.187473154161125
 521.123458341200035  -1425526.165724552469328
 521.886822660800021  -1425526.143578792456537
 522.650932089600019  -1425526.120950732612982
 523.415786990899960  -1425526.097921977518126
 524.181387728300024  -1425526.074508948717266
 524.947734665100029  -1425526.050700522959232
 525.714828164900041  -1425526.026504576904699
 526.482668591100037  -1425526.001810655929148
 527.251256307299968  -1425525.976729309884831
 528.020591676699951  -1425525.951262995135039
 528.790675062999981  -1425525.925411666044965
 529.561506829600035  -1425525.899172556586564


# Temperature: 20.000000
# Parameters: -1425526.685008 0.493341 4.266800 487.178097
 447.797439305299974  -1425525.774884116370231
 448.487419830100009  -1425525.808812098577619
 449.178108753800018  -1425525.842080214992166
 449.869506439699990  -1425525.874546494102105
 450.561613251499978  -1425525.906429546652362
 451.254429552399984  -1425525.937600914156064
 451.947955706100004  -1425525.968077255878597
 452.642192076000015  -1425525.997860238887370
 453.337139025499994  -1425526.027027742005885
 454.032796918100019  -1425526.055532054742798
 454.729166117200009  -1425526.083217838313431
 455.426246986500018  -1425526.110408478416502
 456.124039889199992  -1425526.136796586681157
 456.822545188899994  -1425526.162582826102152
 457.521763249099990  -1425526.187776335049421
 458.221694433200014  -1425526.212170120794326
 458.922339104599985  -1425526.236062277108431
 459.623697626900025  -1425526.259156135609373
 460.325770363599986  -1425526.281645429320633
 461.028557678000027  -1425526.303532951977104
 461.732059933699986  -1425526.324726584367454
 462.436277494100011  -1425526.345310571836308
 463.141210722700009  -1425526.365298004122451
 463.846859982900014  -1425526.384590449742973
 465.260308052299990  -1425526.421355153666809
 465.968107588299972  -1425526.438750496134162
 466.676624609800001  -1425526.455539844697341
 467.385859480399972  -1425526.471724361879751
 468.095812563399988  -1425526.487315349048004
 468.806484222400002  -1425526.502203827258199
 469.517874820799989  -1425526.516588026192039
 470.229984721999983  -1425526.530276238918304
 470.942814289599994  -1425526.543457754654810
 471.656363886900010  -1425526.555936409626156
 472.370633877600028  -1425526.567918798886240
 473.085624624999980  -1425526.579200307838619
 473.801336492600001  -1425526.589878264348954
 474.517769843800011  -1425526.600056071532890
 475.234925042200018  -1425526.609635203378275
 475.952802451299988  -1425526.618525193538517
 476.671402434400022  -1425526.626908757956699
 477.390725354999972  -1425526.634689748054370
 478.110771576700017  -1425526.641989454859868
 478.831541462900020  -1425526.648576006526127
 479.553035377000015  -1425526.654670492745936
 480.275253682500022  -1425526.660273533780128
 480.998196742900006  -1425526.665170278633013
 481.721864921699989  -1425526.669581241905689
 482.446258582300004  -1425526.673400404630229
 483.171378088100028  -1425526.676712402375415
 483.897223802799999  -1425526.679445716552436
 484.623796089599978  -1425526.681676141917706
 485.351095312200016  -1425526.683308382285759
 486.079121833899990  -1425526.684356927406043
 486.807876018300021  -1425526.684904815861955
 487.537358228699986  -1425526.684954378986731
 488.267568828700007  -1425526.684421830577776
 488.998508181799991  -1425526.683377071050927
 489.730176651299985  -1425526.681843635858968
 490.462574600899984  -1425526.679708554642275
 491.195702393799991  -1425526.677069787867367
 491.929560393700001  -1425526.673841425916180
 492.664148963900004  -1425526.670217328704894
 493.399468468000009  -1425526.665986516512930
 494.135519269399992  -1425526.661259868647903
 494.872301731499988  -1425526.656034145271406
 495.609816217900004  -1425526.650200266391039
 496.348063092000018  -1425526.643977498868480
 497.087042717299994  -1425526.637151245959103
 497.826755457300010  -1425526.629914426710457
 498.567201675299998  -1425526.622092839796096
 499.308381735000012  -1425526.613802596461028
 500.050295999599996  -1425526.605027178535238
 500.792944832899991  -1425526.595702652120963
 501.536328598000011  -1425526.585872503463179
 502.280447658699984  -1425526.575650739250705
 503.025302378300012  -1425526.564826388144866
 503.770893120200014  -1425526.553601579973474
 504.517220248099989  -1425526.541884670499712
 506.012085115099978  -1425526.516934194834903
 506.760623581300024  -1425526.503814868396148
 507.509899887299980  -1425526.490198904182762
 508.259914396400006  -1425526.476068533258513
 509.010667472199998  -1425526.461457002907991
 509.762159478099989  -1425526.446436912519857
 510.514390777699987  -1425526.430827563861385
 511.267361734299982  -1425526.414916836423799
 512.021072711400052  -1425526.398506623459980
 512.775524072500048  -1425526.381607603514567
 513.530716181100047  -1425526.364209099905565
 514.286649400699957  -1425526.346410942496732
 515.043324094699983  -1425526.328219594201073
 515.800740626499987  -1425526.309533421881497
 516.558899359700035  -1425526.290349488379434
 517.317800657699991  -1425526.270775456912816
 518.077444883899943  -1425526.250848735915497
 518.837832401899959  -1425526.230337113374844
 519.598963575199946  -1425526.209479529876262
 520.360838767099949  -1425526.188233222579584
 521.123458341200035  -1425526.166496410267428
 521.886822660800021  -1425526.144361986778677
 522.650932089600019  -1425526.121748116565868
 523.415786990899960  -1425526.098733008140698
 524.181387728300024  -1425526.075336076086387
 524.947734665100029  -1425526.051544654881582
 525.714828164900041  -1425526.027367993490770
 526.482668591100037  -1425526.002694293390960
 527.251256307299968  -1425525.977635470917448
 528.020591676699951  -1425525.952194336103275
 528.790675062999981  -1425525.926371783483773
 529.561506829600035  -1425525.900162818375975


# Temperature: 30.000000
# Parameters: -1425526.687314 0.492949 4.272846 487.187789
 447.797439305299974  -1425525.777322047157213
 448.487419830100009  -1425525.811226971913129
 449.178108753800018  -1425525.844485293142498
 449.869506439699990  -1425525.876938400091603
 450.561613251499978  -1425525.908812081441283
 451.254429552399984  -1425525.939971477258950
 451.947955706100004  -1425525.970437167678028
 452.642192076000015  -1425526.000210175989196
 453.337139025499994  -1425526.029365135123953
 454.032796918100019  -1425526.057864184956998
 454.729166117200009  -1425526.085541659500450
 455.426246986500018  -1425526.112724848790094
 456.124039889199992  -1425526.139105225214735
 456.822545188899994  -1425526.164884392172098
 457.521763249099990  -1425526.190070969518274
 458.221694433200014  -1425526.214458574075252
 458.922339104599985  -1425526.238345424877480
 459.623697626900025  -1425526.261433856561780
 460.325770363599986  -1425526.283918430563062
 461.028557678000027  -1425526.305800931761041
 461.732059933699986  -1425526.326990869129077
 462.436277494100011  -1425526.347570729441941
 463.141210722700009  -1425526.367554902331904
 463.846859982900014  -1425526.386845113476738
 465.260308052299990  -1425526.423604037147015
 465.968107588299972  -1425526.440998566104099
 466.676624609800001  -1425526.457786711398512
 467.385859480399972  -1425526.473969835555181
 468.095812563399988  -1425526.489560580113903
 468.806484222400002  -1425526.504448460415006
 469.517874820799989  -1425526.518832438392565
 470.229984721999983  -1425526.532521524932235
 470.942814289599994  -1425526.545703171286732
 471.656363886900010  -1425526.558182273991406
 472.370633877600028  -1425526.570165944285691
 473.085624624999980  -1425526.581449335440993
 473.801336492600001  -1425526.592127114534378
 474.517769843800011  -1425526.602305983193219
 475.234925042200018  -1425526.611886186525226
 475.952802451299988  -1425526.620778514072299
 476.671402434400022  -1425526.629163822857663
 477.390725354999972  -1425526.636946210870519
 478.110771576700017  -1425526.644249568926170
 478.831541462900020  -1425526.650838287780061
 479.553035377000015  -1425526.656935658538714
 480.275253682500022  -1425526.662542821373791
 480.998196742900006  -1425526.667442851699889
 481.721864921699989  -1425526.671858443645760
 482.446258582300004  -1425526.675682992674410
 483.171378088100028  -1425526.678999298950657
 483.897223802799999  -1425526.681739115621895
 484.623796089599978  -1425526.683975503547117
 485.351095312200016  -1425526.685613674344495
 486.079121833899990  -1425526.686669907765463
 486.807876018300021  -1425526.687224786728621
 487.537358228699986  -1425526.687281474238262
 488.267568828700007  -1425526.686758087947965
 488.998508181799991  -1425526.685721202287823
 489.730176651299985  -1425526.684196581831202
 490.462574600899984  -1425526.682070122566074
 491.195702393799991  -1425526.679439787054434
 491.929560393700001  -1425526.676221052417532
 492.664148963900004  -1425526.672606508946046
 493.399468468000009  -1425526.668385142926127
 494.135519269399992  -1425526.663668160792440
 494.872301731499988  -1425526.658452852396294
 495.609816217900004  -1425526.652628960553557
 496.348063092000018  -1425526.646417401963845
 497.087042717299994  -1425526.639602696988732
 497.826755457300010  -1425526.632376192137599
 498.567201675299998  -1425526.624567520106211
 499.308381735000012  -1425526.616295345826074
 500.050295999599996  -1425526.607526239706203
 500.792944832899991  -1425526.598214676138014
 501.536328598000011  -1425526.588397531304508
 502.280447658699984  -1425526.578189851017669
 503.025302378300012  -1425526.567379698157310
 503.770893120200014  -1425526.556169276358560
 504.517220248099989  -1425526.544467945350334
 506.012085115099978  -1425526.519547864096239
 506.760623581300024  -1425526.506444994127378
 507.509899887299980  -1425526.492845874745399
 508.259914396400006  -1425526.478731062728912
 509.010667472199998  -1425526.464137661503628
 509.762159478099989  -1425526.449134333292022
