# temperature   10.000000000000000
#   -0.000014858611754    0.025707439299214  -16.664266766623285 4797.142937767538569 -517471.911736898298841
 412.207042989199977    8.126981900000001
 413.466330438700027    8.234064900000000
 414.728180018399996    8.396273500000000
 415.992594332099998    8.554978999999999
 417.259575983599973    8.755830300000000
 418.529127576800022    8.990624100000000
 419.801251715399985    9.247916600000000
 421.075951003199975    9.482639400000000
 422.353228043999991    9.743607799999999
 423.633085441499986   10.031403500000000
 424.915525799600005   10.360434600000000
 426.200551722099988   10.678755700000000
 427.488165812799991   11.013579000000000
 428.778370675400026   11.430969899999999
 430.071168913699978   11.832922200000001
 431.366563131500016   12.337173099999999
 432.664555932700011   12.780187099999999
 433.965149920999977   13.250336200000000
 435.268347700200025   13.803846699999999
 436.574151873999995   14.433132799999999
 437.882565046399975   15.112063100000000
 439.193589820999989   15.769381700000000
 440.507228801700023   16.513255000000001
 441.823484592199975   17.352353600000001
 443.142359796400001   18.188826899999999
 444.463857017999999   19.064959399999999
 445.787978860900012   19.979689700000002
 447.114727928700006   20.859566699999998
 448.444106825400013   21.836836300000002
 449.776118154699986   22.885238200000000
 451.110764520399982   23.863165599999999
 452.448048526200012   24.780721199999999
 453.787972776000004   25.313709400000000
 455.130539873600014   25.395209999999999
 456.475752422699998   25.373326899999999


# temperature   20.000000000000000
#   -0.000016042387576    0.027543359319527  -17.724088761026216 5066.927588246552659 -542972.850956622860394
 412.207042989199977   46.076194399999999
 413.466330438700027   46.556220199999998
 414.728180018399996   47.081185900000001
 415.992594332099998   47.588269599999997
 417.259575983599973   48.150773100000002
 418.529127576800022   48.747224699999997
 419.801251715399985   49.347622800000003
 421.075951003199975   49.958123299999997
 422.353228043999991   50.614613499999997
 423.633085441499986   51.230808699999997
 424.915525799600005   51.920395900000003
 426.200551722099988   52.585819000000001
 427.488165812799991   53.287176500000001
 428.778370675400026   54.030403000000000
 430.071168913699978   54.746852500000003
 431.366563131500016   55.488590899999998
 432.664555932700011   56.246795900000002
 433.965149920999977   57.078602699999998
 435.268347700200025   57.905414600000000
 436.574151873999995   58.748508700000002
 437.882565046399975   59.613709499999999
 439.193589820999989   60.448084799999997
 440.507228801700023   61.341619600000001
 441.823484592199975   62.263238600000001
 443.142359796400001   63.103344700000001
 444.463857017999999   63.961506600000000
 445.787978860900012   64.801083199999994
 447.114727928700006   65.519350000000003
 448.444106825400013   66.354837000000003
 449.776118154699986   67.128364500000004
 451.110764520399982   67.734912100000003
 452.448048526200012   68.268105100000000
 453.787972776000004   68.296010100000004
 455.130539873600014   67.884727900000001
 456.475752422699998   67.381695399999998


# temperature   30.000000000000000
#   -0.000015505685459    0.026601053514990  -17.106872276634839 4888.088662272963120 -523580.360336921061389
 412.207042989199977   89.999680900000001
 413.466330438700027   90.551004100000000
 414.728180018399996   91.117973500000005
 415.992594332099998   91.663624200000001
 417.259575983599973   92.249860799999993
 418.529127576800022   92.857359700000003
 419.801251715399985   93.458012699999998
 421.075951003199975   94.077322199999998
 422.353228043999991   94.744927099999998
 423.633085441499986   95.341814900000003
 424.915525799600005   96.000590299999999
 426.200551722099988   96.650353600000003
 427.488165812799991   97.331850900000006
 428.778370675400026   98.020661899999993
 430.071168913699978   98.683765300000005
 431.366563131500016   99.333374599999999
 432.664555932700011  100.039456200000004
 433.965149920999977  100.825702600000000
 435.268347700200025  101.563328299999995
 436.574151873999995  102.296441799999997
 437.882565046399975  103.036481800000004
 439.193589820999989  103.754497299999997
 440.507228801700023  104.508426900000003
 441.823484592199975  105.268449500000003
 443.142359796400001  105.950607700000006
 444.463857017999999  106.643126400000000
 445.787978860900012  107.284993200000002
 447.114727928700006  107.805418299999999
 448.444106825400013  108.449399099999994
 449.776118154699986  108.995435599999993
 451.110764520399982  109.372769800000000
 452.448048526200012  109.674113100000000
 453.787972776000004  109.434485499999994
 455.130539873600014  108.785867400000001
 456.475752422699998  108.062060200000005


# temperature   40.000000000000000
#   -0.000015366811139    0.026366211235777  -16.959128645818161 4847.078464490673468 -519301.513562452280894
 412.207042989199977  129.032725599999992
 413.466330438700027  129.580763600000012
 414.728180018399996  130.128488900000008
 415.992594332099998  130.658801100000005
 417.259575983599973  131.218482700000010
 418.529127576800022  131.792576999999994
 419.801251715399985  132.356153400000011
 421.075951003199975  132.937955299999999
 422.353228043999991  133.564960500000012
 423.633085441499986  134.114878900000008
 424.915525799600005  134.714199600000001
 426.200551722099988  135.317564699999991
 427.488165812799991  135.944499400000012
 428.778370675400026  136.567093699999987
 430.071168913699978  137.165221099999997
 431.366563131500016  137.739128399999998
 432.664555932700011  138.382616000000013
 433.965149920999977  139.104029200000014
 435.268347700200025  139.760586899999993
 436.574151873999995  140.407647300000008
 437.882565046399975  141.053453200000007
 439.193589820999989  141.683530600000012
 440.507228801700023  142.337384100000008
 441.823484592199975  142.990402499999988
 443.142359796400001  143.576388900000012
 444.463857017999999  144.169097700000009
 445.787978860900012  144.694054399999999
 447.114727928700006  145.107070899999997
 448.444106825400013  145.643530300000009
 449.776118154699986  146.068461399999990
 451.110764520399982  146.331481599999989
 452.448048526200012  146.513399499999991
 453.787972776000004  146.140710200000001
 455.130539873600014  145.372411000000000
 456.475752422699998  144.538662299999999


# temperature   50.000000000000000
#   -0.000015366825724    0.026373252664210  -16.968660684635577 4851.341005617885457 -519898.536856133257970
 412.207042989199977  162.183728500000001
 413.466330438700027  162.720497300000005
 414.728180018399996  163.248543500000011
 415.992594332099998  163.764045900000013
 417.259575983599973  164.301474399999989
 418.529127576800022  164.849766700000004
 419.801251715399985  165.385913499999987
 421.075951003199975  165.938457199999988
 422.353228043999991  166.532336100000009
 423.633085441499986  167.049190600000003
 424.915525799600005  167.606727000000006
 426.200551722099988  168.176665399999990
 427.488165812799991  168.763745800000009
 428.778370675400026  169.343174900000008
 430.071168913699978  169.898708900000003
 431.366563131500016  170.428339099999988
 432.664555932700011  171.031581700000004
 433.965149920999977  171.709813300000008
 435.268347700200025  172.316443800000002
 436.574151873999995  172.912460199999998
 437.882565046399975  173.502650799999998
 439.193589820999989  174.081482700000009
 440.507228801700023  174.677610499999986
 441.823484592199975  175.270356600000014
 443.142359796400001  175.805049300000007
 444.463857017999999  176.345096699999999
 445.787978860900012  176.807879600000007
 447.114727928700006  177.167194800000004
 448.444106825400013  177.648598899999996
 449.776118154699986  178.012477200000006
 451.110764520399982  178.220627400000012
 452.448048526200012  178.343096800000012
 453.787972776000004  177.905275600000010
 455.130539873600014  177.077778099999989
 456.475752422699998  176.191125900000003


# temperature   60.000000000000000
#   -0.000015423255372    0.026476392430553  -17.039240094383445 4872.758018911602448 -522301.213429414958227
 412.207042989199977  190.006185799999997
 413.466330438700027  190.537275099999988
 414.728180018399996  191.055150700000013
 415.992594332099998  191.564879200000007
 417.259575983599973  192.091657900000001
 418.529127576800022  192.627513899999997
 419.801251715399985  193.150619599999999
 421.075951003199975  193.688648599999993
 422.353228043999991  194.264907099999988
 423.633085441499986  194.765887399999997
 424.915525799600005  195.301932800000003
 426.200551722099988  195.855866999999989
 427.488165812799991  196.422805000000011
 428.778370675400026  196.981768299999999
 430.071168913699978  197.517271999999991
 431.366563131500016  198.028051400000010
 432.664555932700011  198.613768200000010
 433.965149920999977  199.272401199999990
 435.268347700200025  199.856429800000001
 436.574151873999995  200.429890300000011
 437.882565046399975  200.994994499999990
 439.193589820999989  201.552288400000009
 440.507228801700023  202.123330900000013
 441.823484592199975  202.690146900000002
 443.142359796400001  203.205508600000002
 444.463857017999999  203.726198299999993
 445.787978860900012  204.164150799999987
 447.114727928700006  204.505098900000007
 448.444106825400013  204.966879400000010
 449.776118154699986  205.308186400000011
 451.110764520399982  205.498606800000005
 452.448048526200012  205.599813299999994
 453.787972776000004  205.138136500000002
 455.130539873600014  204.289750400000003
 456.475752422699998  203.386328600000013


# temperature   70.000000000000000
#   -0.000015499915592    0.026612178877879  -17.129368783433318 4899.326151255514560 -525212.417178635601886
 412.207042989199977  213.418414200000001
 413.466330438700027  213.953284700000012
 414.728180018399996  214.472503200000006
 415.992594332099998  214.987211800000011
 417.259575983599973  215.515703599999995
 418.529127576800022  216.052382800000004
 419.801251715399985  216.576220000000006
 421.075951003199975  217.113945400000006
 422.353228043999991  217.687641100000008
 423.633085441499986  218.188041499999997
 424.915525799600005  218.719800399999997
 426.200551722099988  219.273165799999987
 427.488165812799991  219.836941599999989
 428.778370675400026  220.393322299999994
 430.071168913699978  220.926580800000011
 431.366563131500016  221.436919899999992
 432.664555932700011  222.022613699999994
 433.965149920999977  222.679767999999996
 435.268347700200025  223.260803900000013
 436.574151873999995  223.831511100000000
 437.882565046399975  224.392263899999989
 439.193589820999989  224.948126900000005
 440.507228801700023  225.515511500000002
 441.823484592199975  226.078349800000012
 443.142359796400001  226.594280099999992
 444.463857017999999  227.115923100000003
 445.787978860900012  227.551291399999997
 447.114727928700006  227.894193800000011
 448.444106825400013  228.356668600000006
 449.776118154699986  228.696803700000004
 451.110764520399982  228.889492899999993
 452.448048526200012  228.989987700000000
 453.787972776000004  228.525938700000012
 455.130539873600014  227.676615099999992
 456.475752422699998  226.774610300000006


# temperature   80.000000000000000
#   -0.000015576436047    0.026745827398155  -17.216906750831832 4924.815414846643762 -527976.889274349552579
 412.207042989199977  233.341513499999991
 413.466330438700027  233.887958800000007
 414.728180018399996  234.417296999999991
 415.992594332099998  234.944920999999994
 417.259575983599973  235.483950800000002
 418.529127576800022  236.030605000000008
 419.801251715399985  236.564425599999993
 421.075951003199975  237.111269099999987
 422.353228043999991  237.692337100000003
 423.633085441499986  238.201779200000004
 424.915525799600005  238.739872899999995
 426.200551722099988  239.302026500000011
 427.488165812799991  239.872784099999990
 428.778370675400026  240.436731900000012
 430.071168913699978  240.977659499999987
 431.366563131500016  241.497221900000000
 432.664555932700011  242.092057899999986
 433.965149920999977  242.757086899999990
 435.268347700200025  243.344953000000004
 436.574151873999995  243.922490399999987
 437.882565046399975  244.488744400000002
 439.193589820999989  245.052370400000001
 440.507228801700023  245.625772200000000
 441.823484592199975  246.194279999999992
 443.142359796400001  246.718787099999986
 444.463857017999999  247.249244199999993
 445.787978860900012  247.690726000000012
 447.114727928700006  248.042650799999990
 448.444106825400013  248.512698999999998
 449.776118154699986  248.858793100000014
 451.110764520399982  249.059617099999997
 452.448048526200012  249.165461599999986
 453.787972776000004  248.705189200000007
 455.130539873600014  247.860113600000005
 456.475752422699998  246.963360399999999


# temperature   90.000000000000000
#   -0.000015644198419    0.026863293744312  -17.293349506660373 4946.955474062499889 -530368.226458472432569
 412.207042989199977  250.527717899999999
 413.466330438700027  251.089167599999996
 414.728180018399996  251.632450799999987
 415.992594332099998  252.176004599999999
 417.259575983599973  252.729027599999995
 418.529127576800022  253.289125200000001
 419.801251715399985  253.836262500000004
 421.075951003199975  254.395529100000005
 422.353228043999991  254.987508200000008
 423.633085441499986  255.509051999999997
 424.915525799600005  256.057031199999983
 426.200551722099988  256.630574799999977
 427.488165812799991  257.211249699999996
 428.778370675400026  257.785388000000012
 430.071168913699978  258.336312200000009
 431.366563131500016  258.866914899999983
 432.664555932700011  259.472336700000028
 433.965149920999977  260.146655699999997
 435.268347700200025  260.742826299999990
 436.574151873999995  261.328321099999982
 437.882565046399975  261.901200399999993
 439.193589820999989  262.473106799999982
 440.507228801700023  263.053205199999979
 441.823484592199975  263.627877899999987
 443.142359796400001  264.160254899999984
 444.463857017999999  264.698497999999972
 445.787978860900012  265.145443800000010
 447.114727928700006  265.504506300000003
 448.444106825400013  265.980057900000020
 449.776118154699986  266.330044600000008
 451.110764520399982  266.535955000000001
 452.448048526200012  266.644212600000003
 453.787972776000004  266.184670700000026
 455.130539873600014  265.340207399999997
 456.475752422699998  264.444184600000028


# temperature  100.000000000000000
#   -0.000015701784369    0.026962820501918  -17.358001976526321 4965.668305986000632 -532389.675134585355408
 412.207042989199977  265.531750699999975
 413.466330438700027  266.107322099999976
 414.728180018399996  266.663788500000010
 415.992594332099998  267.221815699999979
 417.259575983599973  267.787592399999994
 418.529127576800022  268.359791299999983
 419.801251715399985  268.918700000000001
 421.075951003199975  269.488750999999979
 422.353228043999991  270.090103100000022
 423.633085441499986  270.621760600000016
 424.915525799600005  271.177908500000001
 426.200551722099988  271.760441899999989
 427.488165812799991  272.348772999999994
 428.778370675400026  272.930496000000005
 430.071168913699978  273.488556099999983
 431.366563131500016  274.026846999999975
 432.664555932700011  274.639241000000027
 433.965149920999977  275.319172900000012
 435.268347700200025  275.919922799999995
 436.574151873999995  276.509366000000000
 437.882565046399975  277.084814400000027
 439.193589820999989  277.660470099999998
 440.507228801700023  278.242836099999977
 441.823484592199975  278.819097399999976
 443.142359796400001  279.353959900000007
 444.463857017999999  279.894320999999991
 445.787978860900012  280.341300300000000
 447.114727928700006  280.701221799999985
 448.444106825400013  281.175919700000009
 449.776118154699986  281.523441999999989
 451.110764520399982  281.727411500000017
 452.448048526200012  281.831212900000025
 453.787972776000004  281.365472599999976
 455.130539873600014  280.514385000000004
 456.475752422699998  279.611370299999976


# temperature  110.000000000000000
#   -0.000015750712929    0.027047422930606  -17.413045850889169 4981.638730684195252 -534119.759790593176149
 412.207042989199977  278.748474199999976
 413.466330438700027  279.334352799999976
 414.728180018399996  279.900211000000013
 415.992594332099998  280.468381700000009
 417.259575983599973  281.042714400000023
 418.529127576800022  281.622711600000002
 419.801251715399985  282.188914800000020
 421.075951003199975  282.765199600000017
 422.353228043999991  283.371441899999979
 423.633085441499986  283.908387199999993
 424.915525799600005  284.468080100000009
 426.200551722099988  285.054522899999995
 427.488165812799991  285.645516699999973
 428.778370675400026  286.229566799999986
 430.071168913699978  286.789337199999977
 431.366563131500016  287.329518000000007
 432.664555932700011  287.942939599999988
 433.965149920999977  288.622523399999977
 435.268347700200025  289.221861600000011
 436.574151873999995  289.809093399999995
 437.882565046399975  290.380949100000009
 439.193589820999989  290.953865199999996
 440.507228801700023  291.532139900000004
 441.823484592199975  292.103573600000004
 443.142359796400001  292.634006399999976
 444.463857017999999  293.169391299999972
 445.787978860900012  293.609526200000005
 447.114727928700006  293.962894100000028
 448.444106825400013  294.429363799999976
 449.776118154699986  294.767109199999993
 451.110764520399982  294.961416400000019
 452.448048526200012  295.053263599999980
 453.787972776000004  294.573866199999998
 455.130539873600014  293.708582900000010
 456.475752422699998  292.790799400000026


# temperature  120.000000000000000
#   -0.000015793025586    0.027120779474319  -17.460936646740542 4995.586855419826861 -535636.499695637379773
 412.207042989199977  290.462080000000014
 413.466330438700027  291.053054499999973
 414.728180018399996  291.623104399999988
 415.992594332099998  292.195832999999993
 417.259575983599973  292.773251399999992
 418.529127576800022  293.355513900000005
 419.801251715399985  293.923369499999978
 421.075951003199975  294.500222500000007
 422.353228043999991  295.105770000000007
 423.633085441499986  295.642190299999982
 424.915525799600005  296.199807099999987
 426.200551722099988  296.784260399999994
 427.488165812799991  297.372107700000015
 428.778370675400026  297.952515500000004
 430.071168913699978  298.507947100000024
 431.366563131500016  299.043724600000019
 432.664555932700011  299.651833199999999
 433.965149920999977  300.324772999999993
 435.268347700200025  300.916423399999985
 436.574151873999995  301.495105400000000
 437.882565046399975  302.057087799999977
 439.193589820999989  302.620779099999993
 440.507228801700023  303.188643300000024
 441.823484592199975  303.748952799999984
 443.142359796400001  304.268377499999986
 444.463857017999999  304.792128999999989
 445.787978860900012  305.218984400000011
 447.114727928700006  305.559054399999980
 448.444106825400013  306.010672600000021
 449.776118154699986  306.332137199999977
 451.110764520399982  306.510056000000020
 452.448048526200012  306.583486999999991
 453.787972776000004  306.084087500000010
 455.130539873600014  305.198268700000028
 456.475752422699998  304.259341399999983


# temperature  130.000000000000000
#   -0.000015830381876    0.027185771926731  -17.503531682793117 5008.039639499327677 -536995.241220509517007
 412.207042989199977  300.885311800000011
 413.466330438700027  301.475942799999984
 414.728180018399996  302.044774299999972
 415.992594332099998  302.616393700000003
 417.259575983599973  303.191352300000005
 418.529127576800022  303.770322000000021
 419.801251715399985  304.334227199999987
 421.075951003199975  304.906071600000018
 422.353228043999991  305.505449999999996
 423.633085441499986  306.035738900000013
