# temperature   10.000000000000000
#   -0.000008668409355    0.015080419606770   -9.825515787567468 2841.963304075586166 -307937.855408398492727
 414.728180018399996    8.396264400000000
 415.360066420699980    8.511327200000000
 415.992594332099998    8.554975700000000
 416.625764077899987    8.668489400000000
 417.259575983599973    8.755827600000000
 417.894030374800025    8.893127700000001
 418.529127576800022    8.990634600000000
 419.164867915199977    9.117146600000000
 419.801251715399985    9.327819099999999
 420.438279302900014    9.349734000000000
 421.075951003199975    9.482633900000000
 421.714267141700020    9.598579100000000
 422.353228043999991    9.743611100000001
 422.992834035399994    9.857542900000000
 423.633085441499986   10.031389600000001
 424.273982587799992   10.190631700000001
 424.915525799600005   10.360438000000000
 425.557715402600024   10.515638800000000
 426.200551722099988   10.678878600000001
 426.844035083700021   10.823846700000001
 427.488165812799991   11.013584099999999
 428.132944234799993   11.215520500000000
 428.778370675400026   11.430971599999999
 429.424445459799983   11.601330100000000
 430.071168913699978   11.832931300000000
 430.718541362400003   12.046781400000000
 431.366563131500016   12.337160100000000
 432.015234546499983   12.526656500000000
 432.664555932700011   12.780181300000001
 433.314527615700001   12.976738299999999
 433.965149920999977   13.250356399999999
 434.616423173999976   13.557966300000000
 435.268347700200025   13.803862000000001
 435.920923824999988   14.154734200000000
 436.574151873999995   14.433149500000001
 437.228032172700011   14.810080500000000
 437.882565046399975   15.112080300000001
 438.537750820700012   15.439591500000001
 439.193589820999989   15.769359400000001
 439.850082372899976   16.134281600000001
 440.507228801700023   16.513254799999999
 441.165029432999972   16.892834499999999
 441.823484592199975   17.352340999999999
 442.482594604899987   17.734138699999999
 443.142359796400001   18.188841300000000
 443.802780492299974   18.657512199999999
 444.463857017999999   19.064944300000001
 445.125589699099976   19.547831899999998
 445.787978860900012   19.979677299999999
 446.451024829000005   20.398736199999998
 447.114727928700006   20.893308200000000
 447.779088485700015   21.386139100000001
 448.444106825400013   21.836823700000000
 449.109783273199980   22.445485399999999
 449.776118154699986   22.885252000000001
 450.443111795200025   23.456921399999999
 451.110764520399982   23.863074300000001
 451.779076655499978   24.346688199999999
 452.448048526200012   24.780691200000000
 453.117680457900008   25.190620100000000
 453.787972776000004   25.313667100000000


# temperature   20.000000000000000
#   -0.000009861770565    0.016928507975932  -10.890396113277854 3112.395688051405159 -333421.803355663723778
 414.728180018399996   47.081175000000002
 415.360066420699980   47.347131599999997
 415.992594332099998   47.588261000000003
 416.625764077899987   47.868263300000002
 417.259575983599973   48.150769199999999
 417.894030374800025   48.446210000000001
 418.529127576800022   48.747237300000002
 419.164867915199977   49.032326400000002
 419.801251715399985   49.423104600000002
 420.438279302900014   49.658127000000000
 421.075951003199975   49.958115499999998
 421.714267141700020   50.301948099999997
 422.353228043999991   50.614617699999997
 422.992834035399994   50.948187500000003
 423.633085441499986   51.230786199999997
 424.273982587799992   51.570322300000001
 424.915525799600005   51.920398300000002
 425.557715402600024   52.246749800000003
 426.200551722099988   52.585943600000000
 426.844035083700021   52.975932299999997
 427.488165812799991   53.287182899999998
 428.132944234799993   53.628446199999999
 428.778370675400026   54.030402299999999
 429.424445459799983   54.358159800000003
 430.071168913699978   54.746862700000001
 430.718541362400003   55.128670700000001
 431.366563131500016   55.488572599999998
 432.015234546499983   55.868713200000002
 432.664555932700011   56.246791100000003
 433.314527615700001   56.691551500000003
 433.965149920999977   57.078630400000002
 434.616423173999976   57.455385499999998
 435.268347700200025   57.905432699999999
 435.920923824999988   58.331057100000002
 436.574151873999995   58.748518500000003
 437.228032172700011   59.156976299999997
 437.882565046399975   59.613717399999999
 438.537750820700012   59.975941700000000
 439.193589820999989   60.448064299999999
 439.850082372899976   60.859299800000002
 440.507228801700023   61.341621099999998
 441.165029432999972   61.709478500000003
 441.823484592199975   62.263226299999999
 442.482594604899987   62.636483900000002
 443.142359796400001   63.103353599999998
 443.802780492299974   63.510281999999997
 444.463857017999999   63.961493800000000
 445.125589699099976   64.380764600000006
 445.787978860900012   64.801071399999998
 446.451024829000005   65.194650499999995
 447.114727928700006   64.820684600000007
 447.779088485700015   65.948647100000002
 448.444106825400013   66.354825800000000
 449.109783273199980   66.813930600000006
 449.776118154699986   67.128372999999996
 450.443111795200025   67.508439100000004
 451.110764520399982   67.734794899999997
 451.779076655499978   68.049095500000007
 452.448048526200012   68.268101700000003
 453.117680457900008   68.445044300000006
 453.787972776000004   68.295989399999996


# temperature   30.000000000000000
#   -0.000008748780756    0.014984725629999   -9.620761548178921 2744.721552003728902 -293540.006312637298834
 414.728180018399996   91.117966899999999
 415.360066420699980   91.383081000000004
 415.992594332099998   91.663618099999994
 416.625764077899987   91.946594700000006
 417.259575983599973   92.249858399999994
 417.894030374800025   92.537184999999994
 418.529127576800022   92.857368199999996
 419.164867915199977   93.140902699999998
 419.801251715399985   93.483448499999994
 420.438279302900014   93.785649199999995
 421.075951003199975   94.077316100000004
 421.714267141700020   94.443465799999998
 422.353228043999991   94.744931300000005
 422.992834035399994   95.094000399999999
 423.633085441499986   95.341796599999995
 424.273982587799992   95.670507299999997
 424.915525799600005   96.000592400000002
 425.557715402600024   96.318615800000003
 426.200551722099988   96.650478899999996
 426.844035083700021   97.046235999999993
 427.488165812799991   97.331855000000004
 428.132944234799993   97.639969699999995
 428.778370675400026   98.020660599999999
 429.424445459799983   98.333040400000002
 430.071168913699978   98.683772200000007
 430.718541362400003   99.048853100000002
 431.366563131500016   99.333361499999995
 432.015234546499983   99.705901400000002
 432.664555932700011  100.039453699999996
 433.314527615700001  100.483082600000003
 433.965149920999977  100.825723400000001
 434.616423173999976  101.132497700000002
 435.268347700200025  101.563339400000004
 435.920923824999988  101.915847299999996
 436.574151873999995  102.296446099999997
 437.228032172700011  102.617510300000006
 437.882565046399975  103.036485099999993
 438.537750820700012  103.323631199999994
 439.193589820999989  103.754483899999997
 439.850082372899976  104.094016499999995
 440.507228801700023  104.508427200000000
 441.165029432999972  104.790403299999994
 441.823484592199975  105.268442300000004
 442.482594604899987  105.569814600000001
 443.142359796400001  105.950613200000006
 443.802780492299974  106.251794300000000
 444.463857017999999  106.643119200000001
 445.125589699099976  106.949822400000002
 445.787978860900012  107.284985699999993
 446.451024829000005  107.599793300000002
 447.114727928700006  106.783885299999994
 447.779088485700015  108.122556799999998
 448.444106825400013  108.449391300000002
 449.109783273199980  108.782076200000006
 449.776118154699986  108.995440599999995
 450.443111795200025  109.241330800000000
 451.110764520399982  109.372646099999997
 451.779076655499978  109.569730600000000
 452.448048526200012  109.674111999999994
 453.117680457900008  109.717138599999998
 453.787972776000004  109.434474699999996


# temperature   40.000000000000000
#   -0.000008163309314    0.013974530301456   -8.968389998537340 2557.790190585263645 -273443.030554756813217
 414.728180018399996  130.128485299999994
 415.360066420699980  130.378325100000012
 415.992594332099998  130.658797099999987
 416.625764077899987  130.926731899999993
 417.259575983599973  131.218481300000008
 417.894030374800025  131.485205600000000
 418.529127576800022  131.792582500000009
 419.164867915199977  132.058818199999990
 419.801251715399985  132.327360800000008
 420.438279302900014  132.668045799999987
 421.075951003199975  132.937951199999986
 421.714267141700020  133.287480600000009
 422.353228043999991  133.564964300000014
 422.992834035399994  133.895695999999987
 423.633085441499986  134.114865400000014
 424.273982587799992  134.416632399999997
 424.915525799600005  134.714201099999997
 425.557715402600024  135.008747199999988
 426.200551722099988  135.317689999999999
 426.844035083700021  135.684470099999999
 427.488165812799991  135.944501900000006
 428.132944234799993  136.219096100000002
 428.778370675400026  136.567092800000012
 429.424445459799983  136.854314299999999
 430.071168913699978  137.165225499999991
 430.718541362400003  137.502570300000002
 431.366563131500016  137.739119700000003
 432.015234546499983  138.087095799999986
 432.664555932700011  138.382614799999999
 433.314527615700001  138.797150499999987
 433.965149920999977  139.104044100000010
 434.616423173999976  139.364174499999990
 435.268347700200025  139.760593699999987
 435.920923824999988  140.064149200000003
 436.574151873999995  140.407649099999986
 437.228032172700011  140.674774799999994
 437.882565046399975  141.053454899999991
 438.537750820700012  141.293051300000002
 439.193589820999989  141.683521299999995
 439.850082372899976  141.976491699999997
 440.507228801700023  142.337383299999999
 441.165029432999972  142.569797999999992
 441.823484592199975  142.990398300000010
 442.482594604899987  143.249996500000009
 443.142359796400001  143.576392700000014
 443.802780492299974  143.819208599999996
 444.463857017999999  144.169093400000008
 445.125589699099976  144.410766800000005
 445.787978860900012  144.694049600000000
 446.451024829000005  144.961971199999994
 447.114727928700006  143.919019100000014
 447.779088485700015  145.362159700000007
 448.444106825400013  145.643524799999994
 449.109783273199980  145.909397100000007
 449.776118154699986  146.068464799999987
 450.443111795200025  146.245722199999989
 451.110764520399982  146.331356199999988
 451.779076655499978  146.466244600000010
 452.448048526200012  146.513398499999994
 453.117680457900008  146.487146800000005
 453.787972776000004  146.140704099999994


# temperature   50.000000000000000
#   -0.000007862432059    0.013459478115854   -8.638315701803412 2463.905204260398932 -263406.622807988198474
 414.728180018399996  163.248541600000010
 415.360066420699980  163.488104600000014
 415.992594332099998  163.764043200000003
 416.625764077899987  164.021069199999999
 417.259575983599973  164.301473600000008
 417.894030374800025  164.554371900000007
 418.529127576800022  164.849770500000005
 419.164867915199977  165.103798299999994
 419.801251715399985  165.317639500000013
 420.438279302900014  165.683318899999989
 421.075951003199975  165.938454500000006
 421.714267141700020  166.271310400000004
 422.353228043999991  166.532339299999990
 422.992834035399994  166.846525100000008
 423.633085441499986  167.049180600000000
 424.273982587799992  167.331555000000009
 424.915525799600005  167.606728199999992
 425.557715402600024  167.884108199999986
 426.200551722099988  168.176790799999992
 426.844035083700021  168.519518299999987
 427.488165812799991  168.763747499999994
 428.132944234799993  169.017001099999987
 428.778370675400026  169.343174500000003
 429.424445459799983  169.613460000000003
 430.071168913699978  169.898711899999995
 430.718541362400003  170.217351799999989
 431.366563131500016  170.428333100000003
 432.015234546499983  170.758617399999991
 432.664555932700011  171.031580999999989
 433.314527615700001  171.424087600000007
 433.965149920999977  171.709824300000008
 434.616423173999976  171.943886200000009
 435.268347700200025  172.316448199999996
 435.920923824999988  172.592844600000006
 436.574151873999995  172.912460900000013
 437.228032172700011  173.150087399999990
 437.882565046399975  173.502651899999989
 438.537750820700012  173.716238500000003
 439.193589820999989  174.081475899999987
 439.850082372899976  174.348972699999990
 440.507228801700023  174.677609200000006
 441.165029432999972  174.884281899999991
 441.823484592199975  175.270354099999992
 442.482594604899987  175.508759499999996
 443.142359796400001  175.805052200000006
 443.802780492299974  176.017938200000003
 444.463857017999999  176.345093899999995
 445.125589699099976  176.552019400000006
 445.787978860900012  176.807876499999992
 446.451024829000005  177.051471800000002
 447.114727928700006  175.882778900000005
 447.779088485700015  177.390044700000004
 448.444106825400013  177.648594800000012
 449.109783273199980  177.880727400000012
 449.776118154699986  178.012479799999994
 450.443111795200025  178.155820199999994
 451.110764520399982  178.220501299999995
 451.779076655499978  178.323818799999998
 452.448048526200012  178.343095900000009
 453.117680457900008  178.281948300000010
 453.787972776000004  177.905271999999997


# temperature   60.000000000000000
#   -0.000007722973925    0.013222869785800   -8.487994618192715 2421.508663562291986 -258898.632625873811776
 414.728180018399996  191.055149800000009
 415.360066420699980  191.290612900000013
 415.992594332099998  191.564877200000012
 416.625764077899987  191.817070599999994
 417.259575983599973  192.091657300000008
 417.894030374800025  192.338214700000009
 418.529127576800022  192.627516700000001
 419.164867915199977  192.876282000000003
 419.801251715399985  193.056435800000003
 420.438279302900014  193.440201199999990
 421.075951003199975  193.688646699999993
 421.714267141700020  194.011689200000006
 422.353228043999991  194.264909799999998
 422.992834035399994  194.570048200000002
 423.633085441499986  194.765879899999987
 424.273982587799992  195.038342199999988
 424.915525799600005  195.301933600000012
 425.557715402600024  195.570797300000009
 426.200551722099988  195.855992399999991
 426.844035083700021  196.185139399999997
 427.488165812799991  196.422806100000003
 428.132944234799993  196.665879399999994
 428.778370675400026  196.981768299999999
 429.424445459799983  197.244678999999991
 430.071168913699978  197.517274100000009
 430.718541362400003  197.827658200000002
 431.366563131500016  198.028047100000009
 432.015234546499983  198.350414400000005
 432.664555932700011  198.613767800000005
 433.314527615700001  198.995537100000007
 433.965149920999977  199.272409600000003
 434.616423173999976  199.495201500000007
 435.268347700200025  199.856432799999993
 435.920923824999988  200.121267999999986
 436.574151873999995  200.429890499999999
 437.228032172700011  200.654672699999992
 437.882565046399975  200.994995200000005
 438.537750820700012  201.198041899999993
 439.193589820999989  201.552283200000005
 439.850082372899976  201.809757999999988
 440.507228801700023  202.123329500000011
 441.165029432999972  202.320420200000001
 441.823484592199975  202.690145199999989
 442.482594604899987  202.921977099999992
 443.142359796400001  203.205510800000013
 443.802780492299974  203.406966199999999
 444.463857017999999  203.726196299999998
 445.125589699099976  203.918399800000003
 445.787978860900012  204.164148500000010
 446.451024829000005  204.399548900000013
 447.114727928700006  203.162753299999991
 447.779088485700015  204.715184300000004
 448.444106825400013  204.966876299999996
 449.109783273199980  205.185998699999999
 449.776118154699986  205.308188400000006
 450.443111795200025  205.438836500000008
 451.110764520399982  205.498480300000011
 451.779076655499978  205.589853199999993
 452.448048526200012  205.599812500000013
 453.117680457900008  205.525178799999992
 453.787972776000004  205.138134299999990


# temperature   70.000000000000000
#   -0.000007672989827    0.013139090044041   -8.435419618153531 2406.868802918269466 -257348.978785310755484
 414.728180018399996  214.472502800000001
 415.360066420699980  214.709870800000004
 415.992594332099998  214.987210299999987
 416.625764077899987  215.240658599999989
 417.259575983599973  215.515703199999990
 417.894030374800025  215.762752299999988
 418.529127576800022  216.052384899999993
 419.164867915199977  216.302493499999997
 419.801251715399985  216.465319399999998
 420.438279302900014  216.864990199999994
 421.075951003199975  217.113944099999998
 421.714267141700020  217.434623499999987
 422.353228043999991  217.687643299999991
 422.992834035399994  217.991311300000007
 423.633085441499986  218.188035600000006
 424.273982587799992  218.458859100000012
 424.915525799600005  218.719800999999990
 425.557715402600024  218.987913800000001
 426.200551722099988  219.273291400000005
 426.844035083700021  219.598284699999994
 427.488165812799991  219.836942599999986
 428.132944234799993  220.078594100000004
 428.778370675400026  220.393322500000011
 429.424445459799983  220.656778199999991
 430.071168913699978  220.926582499999995
 430.718541362400003  221.237143699999990
 431.366563131500016  221.436916800000006
 432.015234546499983  221.759530600000005
 432.664555932700011  222.022613500000006
 433.314527615700001  222.402843499999989
 433.965149920999977  222.679774600000002
 434.616423173999976  222.901301700000005
 435.268347700200025  223.260806099999996
 435.920923824999988  223.524415500000003
 436.574151873999995  223.831511100000000
 437.228032172700011  224.054204900000002
 437.882565046399975  224.392264399999988
 438.537750820700012  224.594901499999992
 439.193589820999989  224.948122799999993
 439.850082372899976  225.205563500000011
 440.507228801700023  225.515510100000000
 441.165029432999972  225.713075000000003
 441.823484592199975  226.078348599999998
 442.482594604899987  226.312699900000013
 443.142359796400001  226.594281899999999
 443.802780492299974  226.795325300000002
 444.463857017999999  227.115921600000007
 445.125589699099976  227.305288600000011
 445.787978860900012  227.551289800000006
 446.451024829000005  227.788069400000012
 447.114727928700006  226.516405899999995
 447.779088485700015  228.102695399999988
 448.444106825400013  228.356666200000006
 449.109783273199980  228.574285699999990
 449.776118154699986  228.696805299999994
 450.443111795200025  228.826233300000013
 451.110764520399982  228.889366200000012
 451.779076655499978  228.979444500000000
 452.448048526200012  228.989987000000013
 453.117680457900008  228.913212499999986
 453.787972776000004  228.525937199999987


# temperature   80.000000000000000
#   -0.000007667136719    0.013129989108847   -8.430221137328509 2405.590904083757778 -257217.146934739430435
 414.728180018399996  234.417296899999997
 415.360066420699980  234.660819199999992
 415.992594332099998  234.944919800000008
 416.625764077899987  235.203928499999989
 417.259575983599973  235.483950499999992
 417.894030374800025  235.736121400000002
 418.529127576800022  236.030606799999987
 419.164867915199977  236.286473999999998
 419.801251715399985  236.442613099999988
 420.438279302900014  236.857183800000001
 421.075951003199975  237.111268200000012
 421.714267141700020  237.434697699999987
 422.353228043999991  237.692338900000010
 422.992834035399994  237.999527099999995
 423.633085441499986  238.201774599999993
 424.273982587799992  238.476113499999997
 424.915525799600005  238.739873299999999
 425.557715402600024  239.012013499999995
 426.200551722099988  239.302152299999989
 426.844035083700021  239.628826099999998
 427.488165812799991  239.872784800000005
